time,amplitude
0.000000000000000000e+00,3.672316384180790982e-01
2.004008016032063962e-03,4.973086237744003824e-01
4.008016032064127925e-03,5.283411477585949756e-01
6.012024048096191453e-03,5.353883430779938779e-01
8.016032064128255849e-03,4.785017866854067714e-01
1.002004008016032024e-02,4.949631560519103246e-01
1.202404809619238291e-02,5.170989164902431989e-01
1.402805611222444730e-02,9.959241535221283748e-01
1.603206412825651170e-02,9.577634313245504405e-01
1.803607214428857436e-02,9.993278045793412279e-01
2.004008016032064049e-02,9.800165941145243531e-01
2.204408817635270315e-02,9.869290819241134383e-01
2.404809619238476581e-02,9.835976477329783085e-01
2.605210420841683194e-02,9.411634637104130396e-01
2.805611222444889460e-02,1.002499358435303467e+00
3.006012024048096073e-02,9.926485718667058533e-01
3.206412825651302340e-02,9.945959917630718961e-01
3.406813627254508953e-02,9.943406712623555910e-01
3.607214428857714872e-02,9.943430620792084174e-01
3.807615230460921485e-02,9.943532761227805716e-01
4.008016032064128098e-02,9.943495042701233633e-01
4.208416833667334017e-02,9.943504323502999620e-01
4.408817635270540630e-02,9.943502639565254819e-01
4.609218436873747243e-02,9.943502822401741881e-01
4.809619238476953162e-02,9.943502833555873943e-01
5.010020040080159776e-02,9.943502821819834026e-01
5.210420841683366389e-02,9.943502825587319238e-01
5.410821643286573002e-02,9.943502824730401368e-01
5.611222444889778921e-02,9.943502824871495172e-01
5.811623246492985534e-02,9.943502824860013245e-01
6.012024048096192147e-02,9.943502824857779476e-01
6.212424849699398066e-02,9.943502824859057343e-01
6.412825651302604679e-02,9.943502824858689859e-01
6.613226452905811292e-02,9.943502824858767575e-01
6.813627254509017905e-02,9.943502824858757583e-01
7.014028056112224518e-02,9.943502824858757583e-01
7.214428857715429744e-02,9.943502824858757583e-01
7.414829659318636357e-02,9.943502824858758693e-01
7.615230460921842970e-02,9.943502824858756473e-01
7.815631262525049583e-02,9.943502824858756473e-01
8.016032064128256196e-02,9.943502824858756473e-01
8.216432865731462809e-02,9.943502824858757583e-01
8.416833667334668034e-02,9.943502824858758693e-01
8.617234468937874647e-02,9.943502824858756473e-01
8.817635270541081260e-02,9.943502824858757583e-01
9.018036072144287874e-02,9.943502824858758693e-01
9.218436873747494487e-02,9.943502824858757583e-01
9.418837675350701100e-02,9.943502824858758693e-01
9.619238476953906325e-02,9.943502824858756473e-01
9.819639278557112938e-02,9.943502824858757583e-01
1.002004008016031955e-01,9.943502824858758693e-01
1.022044088176352616e-01,9.943502824858756473e-01
1.042084168336673278e-01,9.943502824858758693e-01
1.062124248496993939e-01,9.943502824858758693e-01
1.082164328657314600e-01,9.943502824858756473e-01
1.102204408817635123e-01,9.943502824858758693e-01
1.122244488977955784e-01,9.943502824858755362e-01
1.142284569138276445e-01,9.943502824858757583e-01
1.162324649298597107e-01,9.943502824858752032e-01
1.182364729458917768e-01,9.943502824858806433e-01
1.202404809619238429e-01,9.943502824858490019e-01
1.222444889779558952e-01,9.943502824859894451e-01
1.242484969939879613e-01,9.943502824855449118e-01
1.262525050100200275e-01,9.943502824860208644e-01
1.282565130260520936e-01,9.943502824925046779e-01
1.302605210420841597e-01,9.943502824309540244e-01
1.322645290581162258e-01,9.943502827742430883e-01
1.342685370741482920e-01,9.943502813644051752e-01
1.362725450901803581e-01,9.943502852623251620e-01
1.382765531062124242e-01,9.943502854464256746e-01
1.402805611222444904e-01,9.943501937313286021e-01
1.422845691382765287e-01,9.943509082276027478e-01
1.442885771543085949e-01,9.943472550070913130e-01
1.462925851703406610e-01,9.943610643413927086e-01
1.482965931863727271e-01,9.943294445915020763e-01
1.503006012024047933e-01,9.942698630513702174e-01
1.523046092184368594e-01,9.954670441396310521e-01
1.543086172344689255e-01,9.860922940805120218e-01
1.563126252505009917e-01,9.841358262693499226e-01
1.583166332665330578e-01,9.803264244912177627e-01
1.603206412825651239e-01,9.772523258325845896e-01
1.623246492985971901e-01,9.773339544078707419e-01
1.643286573146292562e-01,9.774129086219875973e-01
1.663326653306613223e-01,9.775008458130081124e-01
1.683366733466933607e-01,9.784733981108445500e-01
1.703406813627254268e-01,9.940390399403614685e-01
1.723446893787574929e-01,9.321908187999531359e-01
1.743486973947895591e-01,1.000387628809493501e+00
1.763527054108216252e-01,9.921263729657499031e-01
1.783567134268536913e-01,9.948983318206225945e-01
1.803607214428857575e-01,9.942505708819231458e-01
1.823647294589178236e-01,9.943610761362382533e-01
1.843687374749498897e-01,9.943509622849335816e-01
1.863727454909819559e-01,9.943495898385849019e-01
1.883767535070140220e-01,9.943505046640107592e-01
1.903807615230460881e-01,9.943502318469560342e-01
1.923847695390781265e-01,9.943502908505712501e-01
1.943887775551101926e-01,9.943502818036512592e-01
1.963927855711422588e-01,9.943502823040470950e-01
1.983967935871743249e-01,9.943502831766779515e-01
2.004008016032063910e-01,9.943502787190963144e-01
2.024048096192384572e-01,9.943502989775521161e-01
2.044088176352705233e-01,9.943502308180244276e-01
2.064128256513025894e-01,9.943503352737279588e-01
2.084168336673346555e-01,9.943510703056812616e-01
2.104208416833667217e-01,9.943429304126719659e-01
2.124248496993987878e-01,9.943908516400198350e-01
2.144288577154308539e-01,9.941850861415866270e-01
2.164328657314629201e-01,9.948018670374356720e-01
2.184368737474949584e-01,9.886873450409074948e-01
2.204408817635270246e-01,9.886139527065131993e-01
2.224448897795590907e-01,9.905084334955447378e-01
2.244488977955911568e-01,9.949202358381528111e-01
2.264529058116232230e-01,9.942091548667039147e-01
2.284569138276552891e-01,9.944540158807195773e-01
2.304609218436873552e-01,9.945420077098646727e-01
2.324649298597194214e-01,9.904608524789467738e-01
2.344689378757514875e-01,9.808188517052834898e-01
2.364729458917835536e-01,9.836213518474964390e-01
2.384769539078156197e-01,9.785123490410463365e-01
2.404809619238476859e-01,9.916805220273338106e-01
2.424849699398797520e-01,9.336481190582941458e-01
2.444889779559117904e-01,1.002126469228990846e+00
2.464929859719438565e-01,9.921578100724867122e-01
2.484969939879759226e-01,9.948049972493563375e-01
2.505010020040079888e-01,9.942853975677782286e-01
2.525050100200400549e-01,9.943525732640892123e-01
2.545090180360721210e-01,9.943522705557646946e-01
2.565130260521041872e-01,9.943494725664752121e-01
2.585170340681362533e-01,9.943504914994042432e-01
2.605210420841683194e-01,9.943502425299821645e-01
2.625250501002003856e-01,9.943502873479911353e-01
2.645290581162324517e-01,9.943502825780041743e-01
2.665330661322645178e-01,9.943502822481888881e-01
2.685370741482965840e-01,9.943502825679101376e-01
2.705410821643286501e-01,9.943502824663419393e-01
2.725450901803607162e-01,9.943502824892886949e-01
2.745490981963927823e-01,9.943502824855451339e-01
2.765531062124248485e-01,9.943502824858396760e-01
2.785571142284569146e-01,9.943502824859025147e-01
2.805611222444889807e-01,9.943502824858675426e-01
2.825651302605209914e-01,9.943502824858774236e-01
2.845691382765530575e-01,9.943502824858754252e-01
2.865731462925851236e-01,9.943502824858757583e-01
2.885771543086171897e-01,9.943502824858757583e-01
2.905811623246492559e-01,9.943502824858757583e-01
2.925851703406813220e-01,9.943502824858759803e-01
2.945891783567133881e-01,9.943502824858756473e-01
2.965931863727454543e-01,9.943502824858757583e-01
2.985971943887775204e-01,9.943502824858759803e-01
3.006012024048095865e-01,9.943502824858758693e-01
3.026052104208416527e-01,9.943502824858756473e-01
3.046092184368737188e-01,9.943502824858758693e-01
3.066132264529057849e-01,9.943502824858755362e-01
3.086172344689378511e-01,9.943502824858755362e-01
3.106212424849699172e-01,9.943502824858756473e-01
3.126252505010019833e-01,9.943502824858758693e-01
3.146292585170340494e-01,9.943502824858757583e-01
3.166332665330661156e-01,9.943502824858755362e-01
3.186372745490981817e-01,9.943502824858758693e-01
3.206412825651302478e-01,9.943502824858759803e-01
3.226452905811623140e-01,9.943502824858757583e-01
3.246492985971943801e-01,9.943502824858756473e-01
3.266533066132264462e-01,9.943502824858756473e-01
3.286573146292585124e-01,9.943502824858759803e-01
3.306613226452905785e-01,9.943502824858756473e-01
3.326653306613226446e-01,9.943502824858759803e-01
3.346693386773546552e-01,9.943502824858775346e-01
3.366733466933867214e-01,9.943502824858579947e-01
3.386773547094187875e-01,9.943502824859765665e-01
3.406813627254508536e-01,9.943502824854527633e-01
3.426853707414829198e-01,9.943502824870928958e-01
3.446893787575149859e-01,9.943502824854673072e-01
3.466933867735470520e-01,9.943502824604636414e-01
3.486973947895791182e-01,9.943502826930394889e-01
3.507014028056111843e-01,9.943502814061639938e-01
3.527054108216432504e-01,9.943502866545165242e-01
3.547094188376753165e-01,9.943502723419680445e-01
3.567134268537073827e-01,9.943502699023460956e-01
3.587174348697394488e-01,9.943506205268355380e-01
3.607214428857715149e-01,9.943479275193672917e-01
3.627254509018035811e-01,9.943615984636816618e-01
3.647294589178356472e-01,9.943103126152976756e-01
3.667334669338677133e-01,9.944253670170111192e-01
3.687374749498997795e-01,9.946673605214777503e-01
3.707414829659318456e-01,9.898360137885400256e-01
3.727454909819639117e-01,9.812911714225458493e-01
3.747494989979959779e-01,9.831427859429295868e-01
3.767535070140280440e-01,9.789404758827893183e-01
3.787575150300601101e-01,9.906491891206787859e-01
3.807615230460921762e-01,9.345365442730342309e-01
3.827655310621242424e-01,1.002407119942999802e+00
3.847695390781562530e-01,9.922086647775888446e-01
3.867735470941883191e-01,9.947717526982162717e-01
3.887775551102203853e-01,9.942957685494306919e-01
3.907815631262524514e-01,9.943504189455161235e-01
3.927855711422845175e-01,9.943525438205625955e-01
3.947895791583165837e-01,9.943495003537390353e-01
3.967935871743486498e-01,9.943502722294158547e-01
3.987975951903807159e-01,9.943510488928966051e-01
4.008016032064127820e-01,9.943484207043785661e-01
4.028056112224448482e-01,9.943470747988781833e-01
4.048096192384769143e-01,9.944193983030844564e-01
4.068136272545089804e-01,9.938824275062742020e-01
4.088176352705410466e-01,9.965604374314543934e-01
4.108216432865731127e-01,9.797968471095959142e-01
4.128256513026051788e-01,9.882598487274324439e-01
4.148296593186372450e-01,9.766459661459903074e-01
4.168336673346693111e-01,9.778153679280464639e-01
4.188376753507013772e-01,9.772828745876228629e-01
4.208416833667334433e-01,9.774258973682744545e-01
4.228456913827655095e-01,9.773975682100959350e-01
4.248496993987975756e-01,9.774012426247741248e-01
4.268537074148296417e-01,9.774006443983578318e-01
4.288577154308617079e-01,9.774064747359337835e-01
4.308617234468937740e-01,9.773716422043599028e-01
4.328657314629258401e-01,9.775204150624416943e-01
4.348697394789579063e-01,9.803530105057205457e-01
4.368737474949899169e-01,9.883444250475594828e-01
4.388777555110219830e-01,9.366635776797251900e-01
4.408817635270540491e-01,1.002689486247257733e+00
4.428857715430861153e-01,9.923441681375115841e-01
4.448897795591181814e-01,9.947051671098272596e-01
4.468937875751502475e-01,9.943146520566910063e-01
4.488977955911823137e-01,9.943469432386723428e-01
4.509018036072143798e-01,9.943529544583110669e-01
4.529058116232464459e-01,9.943494551554220573e-01
4.549098196392785121e-01,9.943504666795579539e-01
4.569138276553105782e-01,9.943502530662688965e-01
4.589178356713426443e-01,9.943502845615846963e-01
4.609218436873747105e-01,9.943502830487267463e-01
4.629258517034067766e-01,9.943502821985996665e-01
4.649298597194388427e-01,9.943502825662137168e-01
4.669338677354709088e-01,9.943502824693281061e-01
4.689378757515029750e-01,9.943502824882086699e-01
4.709418837675350411e-01,9.943502824858025946e-01
4.729458917835671072e-01,9.943502824858012623e-01
4.749498997995991734e-01,9.943502824859055123e-01
4.769539078156312395e-01,9.943502824858680977e-01
4.789579158316633056e-01,9.943502824858770905e-01
4.809619238476953718e-01,9.943502824858756473e-01
4.829659318637274379e-01,9.943502824858757583e-01
4.849699398797595040e-01,9.943502824858755362e-01
4.869739478957915702e-01,9.943502824858758693e-01
4.889779559118235808e-01,9.943502824858758693e-01
4.909819639278556469e-01,9.943502824858758693e-01
4.929859719438877130e-01,9.943502824858756473e-01
4.949899799599197792e-01,9.943502824858757583e-01
4.969939879759518453e-01,9.943502824858767575e-01
4.989979959919839114e-01,9.943502824858689859e-01
5.010020040080159776e-01,9.943502824859072886e-01
5.030060120240480437e-01,9.943502824857721745e-01
5.050100200400801098e-01,9.943502824860234179e-01
5.070140280561121759e-01,9.943502824871034429e-01
5.090180360721442421e-01,9.943502824728839284e-01
5.110220440881763082e-01,9.943502825608597773e-01
5.130260521042083743e-01,9.943502821688300353e-01
5.150300601202404405e-01,9.943502834155916181e-01
5.170340681362725066e-01,9.943502820316083568e-01
5.190380761523045727e-01,9.943502642297005201e-01
5.210420841683366389e-01,9.943504349953919963e-01
5.230460921843687050e-01,9.943494787564759463e-01
5.250501002004007711e-01,9.943534195230899764e-01
5.270541082164328373e-01,9.943424505557039161e-01
5.290581162324649034e-01,9.943425872387248177e-01
5.310621242484969695e-01,9.945955250681265403e-01
5.330661322645290356e-01,9.923085882757574083e-01
5.350701402805611018e-01,9.883313589646538500e-01
5.370741482965931679e-01,9.882201929153424658e-01
5.390781563126252340e-01,9.939253473733010713e-01
5.410821643286573002e-01,9.942867740180370006e-01
5.430861723446893663e-01,9.943903258645013787e-01
5.450901803607214324e-01,9.943384482265544833e-01
5.470941883767534986e-01,9.943528303035431559e-01
5.490981963927855647e-01,9.943498956710183911e-01
5.511022044088176308e-01,9.943503037782360776e-01
5.531062124248496970e-01,9.943502921063426259e-01
5.551102204408817631e-01,9.943502756371940254e-01
5.571142284569138292e-01,9.943502983909111581e-01
5.591182364729458953e-01,9.943502208785983676e-01
5.611222444889779615e-01,9.943504570810460796e-01
5.631262525050100276e-01,9.943502426249231085e-01
5.651302605210419827e-01,9.943464871778193714e-01
5.671342685370740488e-01,9.943807406173311714e-01
5.691382765531061150e-01,9.941926961826652587e-01
5.711422845691381811e-01,9.949542634063702762e-01
5.731462925851702472e-01,9.892661540172051904e-01
5.751503006012023134e-01,9.886959285104928163e-01
5.771543086172343795e-01,9.896653888989391801e-01
5.791583166332664456e-01,9.949709938824511379e-01
5.811623246492985118e-01,9.942083242820368705e-01
5.831663326653305779e-01,9.943738760861300374e-01
5.851703406813626440e-01,9.943482579095972440e-01
5.871743486973947102e-01,9.943494553084082366e-01
5.891783567134267763e-01,9.943564462080606292e-01
5.911823647294588424e-01,9.943138208549715529e-01
5.931863727454909085e-01,9.945110822429152897e-01
5.951903807615229747e-01,9.938438068245721846e-01
5.971943887775550408e-01,9.948877833415041838e-01
5.991983967935871069e-01,9.777200858664891747e-01
6.012024048096191731e-01,9.872538243562000160e-01
6.032064128256512392e-01,9.758047007434018649e-01
6.052104208416833053e-01,9.777108687406032006e-01
6.072144288577153715e-01,9.773676867475773467e-01
6.092184368737474376e-01,9.774014097314654981e-01
6.112224448897795037e-01,9.772815544129885845e-01
6.132264529058115698e-01,9.910378349823270039e-01
6.152304609218436360e-01,9.527719727353622936e-01
6.172344689378757021e-01,9.738291165264660876e-01
6.192384769539077682e-01,9.963055767628158366e-01
6.212424849699398344e-01,9.945062652398035663e-01
6.232464929859719005e-01,9.942132720803563695e-01
6.252505010020039666e-01,9.943933394991787411e-01
6.272545090180360328e-01,9.943405997315376554e-01
6.292585170340680989e-01,9.943518514102287487e-01
6.312625250501001650e-01,9.943501650149380033e-01
6.332665330661322312e-01,9.943502546683248289e-01
6.352705410821642973e-01,9.943502972971665077e-01
6.372745490981963634e-01,9.943502782739623846e-01
6.392785571142284295e-01,9.943502834433772808e-01
6.412825651302604957e-01,9.943502820997329739e-01
6.432865731462925618e-01,9.943502827140108247e-01
6.452905811623246279e-01,9.943502868257636518e-01
6.472945891783566941e-01,9.943502435857265453e-01
6.492985971943887602e-01,9.943504937995695236e-01
6.513026052104208263e-01,9.943494339351861555e-01
6.533066132264528925e-01,9.943525372645667382e-01
6.553106212424849586e-01,9.943511442054616678e-01
6.573146292585170247e-01,9.942902995213264150e-01
6.593186372745490909e-01,9.947981614044542065e-01
6.613226452905811570e-01,9.912490041602308732e-01
6.633266533066132231e-01,9.885014153592535102e-01
6.653306613226452892e-01,9.883987470972075418e-01
6.673346693386772444e-01,9.945416149619195068e-01
6.693386773547093105e-01,9.942054419292076783e-01
6.713426853707413766e-01,9.943947444547135417e-01
6.733466933867734427e-01,9.943402396781069186e-01
6.753507014028055089e-01,9.943525757217392957e-01
6.773547094188375750e-01,9.943490512128662084e-01
6.793587174348696411e-01,9.943421040637127062e-01
6.813627254509017073e-01,9.944400258640176959e-01
6.833667334669337734e-01,9.938257153180802828e-01
6.853707414829658395e-01,9.965908378601868733e-01
6.873747494989979057e-01,9.789339214835663938e-01
6.893787575150299718e-01,9.886143880476134793e-01
6.913827655310620379e-01,9.762810803419162964e-01
6.933867735470941041e-01,9.778424760614360389e-01
6.953907815631261702e-01,9.772888659575952319e-01
6.973947895791582363e-01,9.774222623870638671e-01
6.993987975951903024e-01,9.773986714390402453e-01
7.014028056112223686e-01,9.774010749235849671e-01
7.034068136272544347e-01,9.774003775635633495e-01
7.054108216432865008e-01,9.774074771318916888e-01
7.074148296593185670e-01,9.773697858558381135e-01
7.094188376753506331e-01,9.775146077514252907e-01
7.114228456913826992e-01,9.812038955798040307e-01
7.134268537074147654e-01,9.853482347138169395e-01
7.154308617234468315e-01,9.396036099868660951e-01
7.174348697394788976e-01,1.002658051185784549e+00
7.194388777555109638e-01,9.925435556481599919e-01
7.214428857715430299e-01,9.946289184513732451e-01
7.234468937875750960e-01,9.943336029626410610e-01
7.254509018036071621e-01,9.943439835469221055e-01
7.274549098196392283e-01,9.943532301371599269e-01
7.294589178356712944e-01,9.943494807640771427e-01
7.314629258517033605e-01,9.943504436537642377e-01
7.334669338677354267e-01,9.943502607561628404e-01
7.354709418837674928e-01,9.943502828469585886e-01
7.374749498997995589e-01,9.943502832863523322e-01
7.394789579158316251e-01,9.943502821824033999e-01
7.414829659318636912e-01,9.943502825617147600e-01
7.434869739478957573e-01,9.943502824718615241e-01
7.454909819639278235e-01,9.943502824874524970e-01
7.474949899799598896e-01,9.943502824859506983e-01
7.494989979959919557e-01,9.943502824857952671e-01
7.515030060120240218e-01,9.943502824858195810e-01
7.535070140280560880e-01,9.943502824862873180e-01
7.555110220440881541e-01,9.943502824843930554e-01
7.575150300601202202e-01,9.943502824887039404e-01
7.595190380761522864e-01,9.943502824972940690e-01
7.615230460921843525e-01,9.943502823304184446e-01
7.635270541082164186e-01,9.943502834498624265e-01
7.655310621242484848e-01,9.943502781848786443e-01
7.675350701402805509e-01,9.943502962404642265e-01
7.695390781563125060e-01,9.943502663084023974e-01
7.715430861723445721e-01,9.943500905447069105e-01
7.735470941883766383e-01,9.943521515887183693e-01
7.755511022044087044e-01,9.943398023676359720e-01
7.775551102204407705e-01,9.943935498738569745e-01
7.795591182364728366e-01,9.942287994616180180e-01
7.815631262525049028e-01,9.943644457387018631e-01
7.835671342685369689e-01,9.971005164595887482e-01
7.855711422845690350e-01,9.700677643255721794e-01
7.875751503006011012e-01,9.568987812171967366e-01
7.895791583166331673e-01,9.868284812773396864e-01
7.915831663326652334e-01,9.922648148152861669e-01
7.935871743486972996e-01,9.324971141404487796e-01
7.955911823647293657e-01,1.001423768767091715e+00
7.975951903807614318e-01,9.920931194456710234e-01
7.995991983967934980e-01,9.948630003846705705e-01
8.016032064128255641e-01,9.942660325612834304e-01
8.036072144288576302e-01,9.943569423133092888e-01
8.056112224448896963e-01,9.943516622537139638e-01
8.076152304609217625e-01,9.943495114864004947e-01
8.096192384769538286e-01,9.943505168855057974e-01
8.116232464929858947e-01,9.943501746079621562e-01
8.136272545090179609e-01,9.943504811202548144e-01
8.156312625250500270e-01,9.943500938885838636e-01
8.176352705410820931e-01,9.943472924037042304e-01
8.196392785571141593e-01,9.943779031459345497e-01
8.216432865731462254e-01,9.941984702418288355e-01
8.236472945891782915e-01,9.949663158039736555e-01
8.256513026052103577e-01,9.894280139549247455e-01
8.276553106212424238e-01,9.887004455279921888e-01
8.296593186372744899e-01,9.894911245905931851e-01
8.316633266533065560e-01,9.949689117258573301e-01
8.336673346693386222e-01,9.942009514083177679e-01
8.356713426853706883e-01,9.943768113546638254e-01
8.376753507014027544e-01,9.943475797216146939e-01
8.396793587174348206e-01,9.943500232259913085e-01
8.416833667334668867e-01,9.943508497689885761e-01
8.436873747494989528e-01,9.943477718494737605e-01
8.456913827655310190e-01,9.943617108449985809e-01
8.476953907815630851e-01,9.943114847406914203e-01
8.496993987975951512e-01,9.944130162424049679e-01
8.517034068136272174e-01,9.947461026828388064e-01
8.537074148296592835e-01,9.894576275999680259e-01
8.557114228456913496e-01,9.815552272009133716e-01
8.577154308617234157e-01,9.829644991978505608e-01
8.597194388777554819e-01,9.788752850578715803e-01
8.617234468937875480e-01,9.902213721319337303e-01
8.637274549098196141e-01,9.243368149974641179e-01
8.657314629258516803e-01,1.004043505292174343e+00
8.677354709418837464e-01,9.918473201660057414e-01
8.697394789579158125e-01,9.948689076611183513e-01
8.717434869739478787e-01,9.941777568997064440e-01
8.737474949899798338e-01,9.942888934938394208e-01
8.757515030060118999e-01,9.882885394533145185e-01
8.777555110220439660e-01,9.884186260302657567e-01
8.797595190380760322e-01,9.917479144452244766e-01
8.817635270541080983e-01,9.947068133305442261e-01
8.837675350701401644e-01,9.943161660213193365e-01
8.857715430861722306e-01,9.943463770045819494e-01
8.877755511022042967e-01,9.943530917243509348e-01
8.897795591182363628e-01,9.943494291228313076e-01
8.917835671342684289e-01,9.943504700281085018e-01
8.937875751503004951e-01,9.943502528496289683e-01
8.957915831663325612e-01,9.943502847902561115e-01
8.977955911823646273e-01,9.943502863547177828e-01
8.997995991983966935e-01,9.943502473397499708e-01
9.018036072144287596e-01,9.943504845449714358e-01
9.038076152304608257e-01,9.943494255782980851e-01
9.058116232464928919e-01,9.943528101258433116e-01
9.078156312625249580e-01,9.943489234815509059e-01
9.098196392785570241e-01,9.943016583235630979e-01
9.118236472945890903e-01,9.947599102934447934e-01
9.138276553106211564e-01,9.914644343665585113e-01
9.158316633266532225e-01,9.884661375126584382e-01
9.178356713426852886e-01,9.883429220716783981e-01
9.198396793587173548e-01,9.944411461083814130e-01
9.218436873747494209e-01,9.942165310865856975e-01
9.238476953907814870e-01,9.943948491303326032e-01
9.258517034068135532e-01,9.943398835696513061e-01
9.278557114228456193e-01,9.943520535593421972e-01
9.298597194388776854e-01,9.943501238929518538e-01
9.318637274549097516e-01,9.943502595318116644e-01
9.338677354709418177e-01,9.943502972521131023e-01
9.358717434869738838e-01,9.943502781010380431e-01
9.378757515030059499e-01,9.943502834388711076e-01
9.398797595190380161e-01,9.943502823216049391e-01
9.418837675350700822e-01,9.943502825194558969e-01
9.438877755511021483e-01,9.943502827467032290e-01
9.458917835671342145e-01,9.943502798904793050e-01
9.478957915831662806e-01,9.943502972092338466e-01
9.498997995991983467e-01,9.943502210748251802e-01
9.519038076152304129e-01,9.943504582384811163e-01
9.539078156312624790e-01,9.943502328341775609e-01
9.559118236472945451e-01,9.943465380478507809e-01
9.579158316633266113e-01,9.943805673064004536e-01
9.599198396793586774e-01,9.941930195162533845e-01
9.619238476953907435e-01,9.949552409799805597e-01
9.639278557114228096e-01,9.892759877419280423e-01
9.659318637274548758e-01,9.886963985953364231e-01
9.679358717434869419e-01,9.896541632246500519e-01
9.699398797595190080e-01,9.949716917206123945e-01
9.719438877755510742e-01,9.942048233599873885e-01
9.739478957915831403e-01,9.943846468958055240e-01
9.759519038076150954e-01,9.943286227167460467e-01
9.779559118236471615e-01,9.942629804016186457e-01
9.799599198396792277e-01,9.954902938231920961e-01
9.819639278557112938e-01,9.859931975503948287e-01
9.839679358717433599e-01,9.840808340386481001e-01
9.859719438877754261e-01,9.807224443119484381e-01
9.879759519038074922e-01,9.718307710682465572e-01
9.899799599198395583e-01,9.722160723181523245e-01
9.919839679358716245e-01,9.792175378076363179e-01
9.939879759519036906e-01,9.857515261867654255e-01
9.959919839679357567e-01,9.922384561951702597e-01
9.979959919839678228e-01,9.994233977235764677e-01
1.000000000000000000e+00,9.943502824858757583e-01
